1798
3999.43349933624
650.420452594757
1
2
4
0.00569463047851728
0.00559575558101884
0.00513325305713852
0.00549548896092675
0.00580367014423435
0.00572456814178311
0.00558727590639691
0.00542681593166814
0.0056252086221919
0.00600880309616344
0.00597196689298323
0.00545714492577678
0.00538035178025042
0.00558983512273063
0.0054531792035875
0.0058777788196978
0.00585302835968789
0.00545966272302142
0.00521256769680927
0.00549264090911272
0.00587895404862106
0.00544281152721553
0.00478379965033521
0.00487158188108807
0.00524584240942965
0.00557810689701947
0.00554345537316372
0.00500220497937734
0.00507578603283903
0.00588521353842208
0.0060627166421723
0.00570238898644372
0.00561028566004554
0.00576946758679284
0.00588743658712499
0.00550672378247581
0.00518964023811688
0.00534904437051437
0.00510673939634771
0.00475074676401296
0.0051379456855312
0.00588508189775008
0.00621618391582167
0.00592291629184704
0.0056107259645497
0.00559933075689127
0.00568930990272643
0.00566664946046375
0.00572767610558198
0.00606534260512751
0.00637481830673432
0.0063893528754497
0.00611788343366831
0.00570878192691507
0.00534217224976656
0.00509621411819684
0.00601222039332691
0.00673713414600059
0.00587025062535467
0.00586292539787128
0.00639125046659012
0.00614904502051855
0.00586687992759381
0.00530262490828123
0.00456182631578017
0.00473952916735031
0.00486199427818773
0.00566331808252013
0.00647505166068602
0.00625133562037927
0.00570868655942762
0.00563532885407387
0.00575251462185505
0.00523792905606355
0.00490594876076451
0.00550197711934634
0.00669032339316897
0.00737862278011281
0.00638550315767289
0.00448203281926077
0.00435040725330782
0.00524081727949956
0.00582161257706824
0.00559021973793778
0.00542534367726303
0.00578410805668972
0.00517025017509329
0.00443230399799641
0.0051983331041819
0.00596767796208268
0.00547908957703541
0.00493557436417842
0.00455855245276012
0.00472111821764229
0.00576569140887381
0.00571062684164904
0.00532905711676096
0.00571932754125795
0.00543564434264769
0.00447572678865218
0.00437719312605785
0.00498019059099635
0.00522588087120787
0.00524958967043634
0.0055716995654199
0.00586860998120655
0.00544906983336749
0.00537137260173322
0.00554823486868631
0.00501787135692004
0.00435987700861461
0.00409340427416682
0.00433044196848058
0.00484058690774219
0.0049957087303955
0.00499215661492066
0.00509323123421784
0.00518158880777398
0.00542424573822639
0.00538896539396599
0.00532540418439051
0.00544255389266596
0.005335115122649
0.00520406522041262
0.00509772416224934
0.00485915447162228
0.00488247587169734
0.00513067887634105
0.0055102669903702
0.00517495851080995
0.00479564280477324
0.00518981024528821
0.00623289041918387
0.00663241068779788
0.00603693623485191
0.00573544557922254
0.00531524180460244
0.00436887554991626
0.00382850238355832
0.00496556534277816
0.00592796597456831
0.00565879236074439
0.00549239536090266
0.00520513298729595
0.00469207263400829
0.00464153417186068
0.00453328118875379
0.00427501841259166
0.00454053209118892
0.00514360612464821
0.00501062548420331
0.00473704942548889
0.00530989146287037
0.00592655091166028
0.0061648210561661
0.00614924168600067
0.00544751995943047
0.00561473020071321
0.00677592800408899
0.00713539806163786
0.00696600158776468
0.00715028154221087
0.00731470350945214
0.00753829551733026
0.0079854217790444
0.00794340002672942
0.00723229681689642
0.0069952123234779
0.00697538099488012
0.0068493320947778
0.00692760381627654
0.00755054359302136
0.00831360617998354
0.00808153542115778
0.00732081460989075
0.0073616677887246
0.00775096248346836
0.00744987086760861
0.00708851645243852
0.0073784389591871
0.00767099354221485
0.00777145162054177
0.00792711103016266
0.00833950934315872
0.00862526953921844
0.0089378342572597
0.00966905522672659
0.00991672741691949
0.00951065829442834
0.00927297253888291
0.00959107751926289
0.00981397137095388
0.00949808308463005
0.00923775646665043
0.00960586169519101
0.00990439893893203
0.00984910500568979
0.0105296990378388
0.0109373849839986
0.0106309796836967
0.0106098496843327
0.0103918141607651
0.0105652960419992
0.0111608804048034
0.0108609840820925
0.010087600624379
0.00962959979240917
0.00954219997546007
0.00976004645187254
0.0102103553741264
0.0101268851457271
0.00945916197715959
0.00970805450400254
0.0106138191089737
0.0107724493709594
0.0101826224600325
0.00973011200275092
0.00948591965098911
0.00906106389722791
0.00935964383870232
0.0101845286367739
0.0102224697981737
0.00971761156143622
0.0090213744414105
0.00814920612099457
0.00800893422311184
0.00826726548508415
0.00803174680278304
0.0076240816989307
0.00811261728358014
0.00878159160628073
0.00915502617514132
0.00900241355094498
0.00824139369754059
0.00837914619139626
0.00875041964614002
0.00852478375581756
0.00814529209824542
0.00791411038624999
0.00825911103771268
0.00832055492541417
0.00789341036597994
0.00788236756796002
0.00857010954750879
0.00871900109779243
0.0088903321781573
0.00936145470259729
0.00892374901155871
0.00839887284650022
0.00852075992282127
0.00876366717243095
0.0088962183201546
0.00895795762342211
0.0085430823482527
0.00888393212761782
0.00969342399008941
0.00884698865644282
0.00793468405504023
0.00876342082873408
0.00897233500588425
0.00860436342089734
0.00929496331361388
0.00900617035577977
0.00777889821187812
0.00775434006267093
0.00829410755293514
0.00839819536686987
0.00900315458814121
0.00962980416828812
0.00983982904812655
0.00976353446500814
0.00900635411294495
0.00826613394760599
0.00848999292401818
0.0087360786331105
0.00916288797316861
0.00957439334932191
0.00910080314359445
0.00876506909691662
0.00909007390203323
0.00931072860561311
0.00902966752088558
0.0089093209090831
0.00959426626338724
0.0101120716536101
0.0100267779242712
0.00947259462045649
0.00889799784805947
0.00908915492903392
0.00917881047677212
0.00898818491328998
0.00924271746159523
0.00973701199928739
0.00999061394152142
0.0101131813888916
0.0104542428485722
0.0100299710354496
0.00924317244384023
0.00967561006051728
0.00962065340663659
0.00928764160457728
0.0096697919695628
0.0102257770439578
0.00996631591636764
0.00968524205552392
0.00941852665698755
0.00928431030595826
0.0096453291960626
0.010124598727135
0.00987901035188394
0.00983681102909558
0.0105347588650097
0.010814056876686
0.0102293698737267
0.00977148600912171
0.00965510881708515
0.00938520350510789
0.00950327943298255
0.00993952388348896
0.010223895827062
0.00994745134356654
0.00954840855669073
0.0105887733700136
0.0110351311239952
0.0101093155894496
0.00966098272130706
0.00985372065358151
0.00981798792054831
0.00988131326374691
0.0106453629519077
0.0105769909605631
0.00973638311682963
0.00935638206236221
0.0093936427679123
0.00974993946582513
0.0102724956210305
0.0104692965907565
0.0105408678781601
0.0107688114789175
0.0107646663452804
0.0102853331150517
0.010484201876776
0.0104927842429799
0.0100217699527878
0.0103926240563694
0.0110837234557983
0.010898179772797
0.0103183955472028
0.00981325710685134
0.0101109814013767
0.0105256160071181
0.0104667063421544
0.0100600814802033
0.010220910939718
0.00991596703025122
0.00929722242278386
0.00901007191378615
0.00930293847498264
0.00987719176525756
0.0101738846364346
0.0101133931052236
0.00986717258662339
0.0101976422674037
0.0105175261533982
0.0101756463068831
0.0103469387150989
0.010207180874879
0.009372867986046
0.00984886442249266
0.0103088315298903
0.00952902226412958
0.00941019818919548
0.0096708117648627
0.00961543167445047
0.00967659610804749
0.00956262891788351
0.0096298031306687
0.00993554917276315
0.010158227576765
0.0105333082555711
0.0100873823679352
0.00913716637371892
0.00900684311594483
0.00956910649715691
0.0100096957553766
0.0100606553589807
0.00992215989114916
0.00992302088349146
0.0098999033017595
0.00974911988392237
0.0100312402636957
0.00990783964210623
0.00954341504241485
0.00935359138590754
0.00912910313928053
0.00937853535697578
0.00969359395734756
0.00967218690136952
0.00994545898823799
0.00978276922179181
0.00925170119200264
0.00877951060902082
0.00864357226029114
0.00908509226743626
0.0093975277478879
0.00932523760289271
0.00902435585563461
0.00896737419558285
0.00885068384504656
0.00855789822449372
0.00818760875146924
0.00827031350484061
0.00826911808986539
0.00823477390620405
0.00840385700483264
0.00860915481538633
0.00873585127714839
0.00892955685234245
0.00851774170598169
0.00863106498917124
0.00902539895731961
0.00879369417165847
0.0083303110310894
0.0083557528224431
0.00846908763702282
0.00838980214477543
0.00827854275664069
0.00803773126535922
0.00791288273016674
0.0083052192312249
0.0087952819482054
0.00899684453626153
0.00871634111938977
0.00854227988434239
0.00803718530629224
0.00735761994908733
0.00783929456593909
0.00811244772268346
0.0076319212910093
0.00762315354344341
0.00800214064149969
0.00828645761937153
0.00833257313449004
0.00818662073878018
0.00796870567006183
0.00821390975890225
0.00816179995674142
0.00819115330184897
0.0081972010017001
0.00787889233066876
0.00780589245005684
0.007768759071516
0.00778227066418512
0.00764628309336653
0.00767632172043183
0.00772859915693312
0.00757790760239103
0.00741269433802676
0.0076691765697305
0.00751199390769722
0.00724921086789832
0.00763119444116779
0.00749923138966546
0.00733505848174455
0.00746850199536774
0.00751583614765167
0.00765915020251501
0.00780564024802163
0.00755491365330456
0.00724386133840818
0.00751745708501405
0.00755053863954397
0.00723243139128471
0.00735057906686919
0.00759288128353973
0.00787109317265087
0.00804287839264246
0.00816997756467856
0.00806930552500774
0.00796794118267969
0.00774795816298436
0.00751028340179051
0.00779507099062124
0.00830352565285281
0.00844037365171022
0.0085179867230141
0.00865804445720011
0.00853127403368799
0.00850731519512739
0.00826446274763455
0.00830852856027519
0.00857750762415999
0.00908149863215793
0.00946187354633321
0.00926913865642775
0.00879288067471503
0.00884996783649722
0.00900684938941113
0.00926682844449485
0.00946119741766059
0.00924591788822566
0.00898476332754671
0.00934904780764805
0.00964248324992376
0.00951730637325027
0.00997883073436984
0.0100130426451107
0.00948848115962608
0.00945618321737836
0.0100010666544944
0.0100815940648081
0.0100004081022886
0.0100152133479516
0.0101825409182003
0.0104154143092769
0.0102809460009654
0.0102742165253661
0.0106129211211017
0.0110441492590064
0.0109273885514182
0.0105940116446642
0.0108024708483791
0.0108439736623605
0.0108470062249763
0.0106948728900055
0.0107333396560819
0.0110564219838392
0.0114739720608947
0.0112138142014539
0.0112852004968261
0.0117258033315825
0.0123012664065757
0.0125009474655735
0.0122028448537956
0.0122368470209381
0.0124841823052153
0.0126088174980347
0.0129242885430449
0.0132952869526547
0.0136037011732964
0.0139324498596976
0.0140778898779027
0.0141620476921578
0.0147307038740401
0.0155831429875727
0.0163837273688678
0.0167948590345639
0.0174548847782896
0.0189266081910986
0.0203197380128568
0.0213726632943128
0.0229825666230469
0.0249919748020728
0.0274153187593601
0.0298878869790957
0.0323442642911147
0.0351993311254874
0.0381191836867612
0.0406531807761831
0.0430258212088689
0.0453479126954367
0.0472015761563832
0.0485145825195085
0.0501317781580691
0.0525318055673672
0.056462021031059
0.0621076555954469
0.0698765218101887
0.0797973968681954
0.0917108484496064
0.105608805751433
0.122009454224855
0.141181762217083
0.163205582033498
0.188723687337445
0.218249598690766
0.252979430203872
0.294588056610157
0.343444851641757
0.398121612398337
0.453116743081028
0.497517405114487
0.518162807052652
0.510935200250334
0.482499750894761
0.446186102738726
0.410384650247593
0.379102795906318
0.352644482332734
0.32958003157184
0.309359417926633
0.291570110954359
0.276081898628396
0.261634875733222
0.246693133445467
0.23208179812822
0.217349110881631
0.202442971175833
0.188468738936225
0.175403292929553
0.162336141718801
0.15025576486059
0.139567712505375
0.129857475204746
0.122308959248099
0.116914518161378
0.112982460706973
0.110754214044638
0.110892423966851
0.114499312879578
0.123049177292211
0.137897124629102
0.160378353903236
0.193178196625349
0.239386797840787
0.302584100702543
0.379457242162855
0.447568473324919
0.474046280328987
0.45034399150443
0.396792344613145
0.337089114713269
0.284680510019393
0.242704319703219
0.209661297044471
0.183956790931623
0.163828084414446
0.147347615161258
0.133701067795923
0.122773597593661
0.113705216689465
0.105893732683434
0.0991622298161095
0.0929912551180493
0.0870710381715264
0.0817790361152464
0.0774135779918957
0.0737073079446523
0.0704334287249846
0.0673518078571976
0.0641745840707431
0.0615493492592651
0.0592142501220689
0.0567419409832455
0.054271530185388
0.0523002363913748
0.0506211496437354
0.048827822094445
0.0470460840122971
0.0452745353116601
0.0437773220378595
0.0423677199003399
0.0409084137601084
0.0395744332830194
0.0384299732227232
0.0372954190955404
0.0360816629238848
0.034872805452561
0.0339488937646165
0.0334308930981135
0.0325257955735435
0.0314917427909443
0.0309719953947368
0.030516383816247
0.0297316063440946
0.0289182471081598
0.0283813940373914
0.0278911353651961
0.027339082961722
0.0268302786276512
0.0263846608422429
0.0260539780223141
0.0259907445214568
0.0259979452000181
0.0258787509816348
0.0255402097092396
0.0250724362473163
0.0246746546516233
0.0244520483875028
0.0244664403636354
0.0242551484776048
0.0238371570363613
0.0235644650881875
0.0232384400494282
0.0228140303754062
0.0225752587951504
0.0224541683032837
0.0221866896324492
0.0217438400661314
0.0213086921960291
0.0211472669425032
0.0211084942468356
0.0210413112702412
0.0209447985934295
0.0208475081612585
0.0206203854028492
0.0201045839813268
0.0196825041117883
0.0195773577051373
0.0194937820039702
0.019394447445079
0.0194932303557948
0.0196586628102972
0.019632040248569
0.0197334631289287
0.0197665004500278
0.0195202067227535
0.0194993118049623
0.0195700324023266
0.019445197134955
0.0195221546602302
0.0196232026112154
0.0193741335803194
0.019415941127272
0.0198467872215077
0.0198797940110072
0.0197120128389532
0.0198726874749783
0.0200660094412914
0.0198854451375101
0.0197362218386511
0.0198489914269844
0.0200768556538381
0.0201500228439
0.0200766070324886
0.0201135760978986
0.0201601083064517
0.0199793034945396
0.0199986771393831
0.0202371572942624
0.0199139339879211
0.0195250609224861
0.0196684881417002
0.0198115203754812
0.0197907947921435
0.0196352358528495
0.0193000896770886
0.0189588997544183
0.0186177014963376
0.0182941621553604
0.0180555659280139
0.0175824912311671
0.0171909801462701
0.0170222194516504
0.0167152663755097
0.0166765031836776
0.0165929098425971
0.0160930802060308
0.0157371679806295
0.0155796393985636
0.015581711125882
0.0157104669235798
0.0157144209476661
0.0155181746671959
0.0151860779080517
0.0147924961227394
0.014238661067808
0.0136035096767972
0.013544658684807
0.0135689600892068
0.0134056634421843
0.0133934665281692
0.0135365597245322
0.0136450952029456
0.0131978069040374
0.0128742290840109
0.0125243746965808
0.0118596222702923
0.0118077670376325
0.012103469527887
0.011966117292076
0.0119621674986794
0.0124537072444975
0.0121555046814062
0.0114551384826101
0.0114022390126319
0.0114782716065866
0.0112694456662702
0.0106397804676423
0.0103421965463624
0.0107258235559735
0.0108500327367721
0.0109677996314686
0.0108784891728512
0.0103482091653694
0.0104679295299952
0.010824222212307
0.0106625304834118
0.0102240180431244
0.0101714916768669
0.0106138196631676
0.0106576581603448
0.0103594563752966
0.0100538891021108
0.0100446664527135
0.0104962764115631
0.0100154080598432
0.00896002222119282
0.00929546236206392
0.0100610088323043
0.00952469045424459
0.00881701490018795
0.00904488655510651
0.00942278538099769
0.00947261168632886
0.00961362557284267
0.009679459918918
0.00917912611292085
0.00896189794753648
0.00876494055868581
0.00847111865584206
0.00885083578269466
0.00879774749949814
0.00841118488708595
0.00872348272278238
0.00917711962802289
0.00917098943401962
0.00879431837092059
0.00870952590007655
0.0091209080192743
0.00900692230720298
0.00856895598275822
0.00878166474172175
0.00901958408099098
0.00858851167775634
0.00828945853207777
0.00884353284011715
0.00891303232999418
0.00851370237125434
0.00889189030459604
0.0087190634675669
0.00851981327192954
0.00889294026863428
0.00864381430441267
0.0081848281902766
0.00805752536969209
0.0080732598770349
0.00853225772888511
0.00874455108832242
0.00835126064016665
0.00793750488307182
0.00785518687978695
0.00797680584530464
0.00825836583602512
0.00849462239826973
0.00822571123448597
0.00786724997502768
0.00774403289135688
0.00786937438744249
0.00840137933362015
0.00898422391095385
0.00898068493368404
0.0084744122846384
0.0083612040709544
0.00838552850790287
0.00815028778861965
0.00808087521859904
0.00781216623779556
0.00759586111013149
0.00789191038805189
0.00791351205657602
0.00776283802145277
0.00770600778613423
0.0076451414594512
0.00783170291295333
0.00809252061279144
0.0081627524645576
0.0081830449167932
0.00824217584266281
0.00848373754463423
0.00863293351373196
0.0086690856278395
0.00878828405372215
0.00896598475925625
0.00914244029726738
0.00899558083231419
0.00845808929762695
0.00810778737147651
0.00813613707324496
0.00862160168375497
0.00862642272729565
0.0081694884395566
0.00808433257104356
0.00848377042682958
0.00849156833605846
0.00838748464777983
0.00876679728304238
0.00950568024172073
0.0105350156591484
0.0111381902278909
0.0107493801643831
0.010256070391801
0.0103785230376263
0.0100845878967329
0.00981350705211973
0.00985109546100505
0.010042112498072
0.0102941078657371
0.0106698913371798
0.0111971805151025
0.0116212401591693
0.0115567055988657
0.0108601315081393
0.0104161851172089
0.0105564282134939
0.0111166330990815
0.010813604429629
0.00978807212222629
0.00978855404829631
0.0100145134891356
0.00967084010307014
0.00928726035828649
0.00882180627906487
0.00901846088027061
0.00940447592373749
0.00955181939092774
0.00978901603160448
0.00971745801671155
0.00985260700052063
0.0101886889253625
0.00999346678780437
0.00966832090473912
0.00934663827953206
0.00835752630618987
0.00867094730271439
0.00965725833457909
0.00931387858001641
0.00891949314647262
0.0084852125846734
0.00754469740455051
0.00702063645000557
0.00715740057584789
0.00691758193660913
0.00729947892000243
0.00795660923310708
0.0080875962363351
0.00799274494863737
0.00676267344793819
0.00654099021523541
0.00688568979057874
0.00686235902136083
0.00655712117522134
0.00631380202270865
0.0066344351584516
0.00700986239206088
0.00732812903417294
0.00741452579599894
0.00604117141107517
0.00546506880092651
0.00542394532387005
0.0066713273883111
0.00697278138716117
0.00534378319221414
0.00403425172378931
0.00543379602549599
0.00624456021078998
0.00605273605580053
0.00596800216551747
0.00607455996111853
0.00565142527154114
0.0051476645043139
0.00545919502901433
0.00475378262116064
0.00423099418577288
0.00547528875968021
0.00632979202052917
0.00584150273210415
0.00555610205766019
0.0050501553546811
0.00496809222409074
0.00566208008127061
0.00523055088426773
0.00471598285221263
0.00583282933954646
0.00588015538293505
0.00539820031082144
0.00458539137439904
0.00403523839225857
0.00495184730128709
0.00410523354419064
0.00269195343899559
0.00327484713116228
0.00490681379148233
0.00690489130840832
0.00729535653933043
0.00663619087876247
0.00541131051089504
0.0033693814929561
0.00302042176761811
0.00096172104266516
0.00139766752822384
0.0032057685838279
0.00207343625541724
0.00106129174694353
0.00101125781114737
0.00346002351336766
0.00514826593133718
0.00375974157400181
0.00301534275798484
0.00275106622418784
0.00293227492436263
0.0024033728092023
0.00187834951909246
0.00271252267859771
0.00371587664376567
0.00507244240791719
0.00573618622650482
0.00548084487201033
0.00511324417014974
0.00557868475996109
0.00622225527243036
0.00616774675535375
0.00596849779616697
0.00509529334133334
0.00536785181688972
0.00617820224577574
0.00577182581277493
0.00534345724072775
0.00573345066320561
0.00659494108955136
0.00761354032572167
0.00727788062677549
0.00627299502398779
0.00574328268849817
0.00547082412490079
0.00513908234287012
0.0052085357374797
0.00532298592469991
0.00649950284103871
0.00718696143844589
0.00709674443455348
0.00711255745209794
0.00682795713149971
0.00689981733710887
0.00647896120235533
0.00520269135321684
0.0054792552351232
0.00708095623664039
0.00637640555258067
0.00538896829673624
0.00629209006338047
0.00636266567020898
0.00514920000785535
0.00501136678489207
0.00617878700267015
0.00671829274247392
0.00572778986564879
0.00507653584790084
0.00528978572540513
0.00655763633484681
0.0066787915525194
0.00643473215121442
0.00697914453563546
0.00674139616988403
0.00527867955445437
0.00469036563688689
0.00602389537199732
0.00684988680359469
0.00632092576457404
0.00402607579848635
0.00391122688472459
0.00392192296761085
0.00204708762276871
0.00281469422067963
0.00290991218827545
0.00293168446690832
0.00448708590470926
0.00605240668608037
0.00693779506872744
0.00618573782492521
0.00563894622115626
0.00388218880188806
0.0046346683338684
0.00469769442654374
0.00438444813808055
0.0058774880975998
0.00631557071669044
0.00574374989679666
0.00553030196857757
0.00485640102249371
0.00466373823453967
0.00577386553843908
0.00605479926013391
0.00587025979323802
0.00682376590392201
0.00680675878478176
0.00744581463803332
0.00462220341916411
0.00148455464642611
0.00240389870256997
0.00368266241887675
0.00381904772961121
0.00390257234793641
0.00377324160743826
0.00463066568852224
0.00443208933787433
0.00360609196634585
0.00440836345199202
0.00484055997939833
0.00423842044808908
0.00476751351973572
0.00436332675324189
0.00421428531000772
0.00544188486324375
0.00576548298975248
0.00606165776492939
0.00608586947876502
0.00476503344920809
0.00442358264385577
0.00546897408265607
0.00554340912761452
0.00531809572729766
0.00544096809725805
0.00551824048820595
0.00552696155104435
0.00623453332680811
0.00691221236564954
0.00676250870304855
0.00685597250616565
0.00671409078539027
0.00678387460888224
0.00764455131911241
0.00788104958942365
0.00811054777520934
0.00831982012356345
0.00779343233903073
0.0078270942559259
0.00748296512642753
0.00728786170358878
0.00775509526203947
0.00802445579327368
0.00742171507397831
0.00740615158165432
0.00771804936048906
0.00760954504953546
0.00746338075119562
0.00776551671192819
0.00795320380121731
0.00757097957159386
0.00736796647982401
0.00768146393363324
0.00785482882363642
0.00787148477496144
0.00772229330201054
0.00742247339775635
0.00729826821248363
0.0071479134625545
0.00709337603758427
0.00719388802160243
0.00726286392129824
0.00748233537474485
0.00784428739921252
0.00769659834984
0.00744196314830991
0.00757998651918474
0.00790790295209927
0.00813832416111679
0.00781296578246333
0.00760248466365027
0.0075579739089222
0.00758840925111859
0.00775275374927128
0.00791174972607179
0.00833376282603106
0.00827205051752137
0.00801439962397441
0.00810679263748629
0.00771308009430054
0.00757786862726276
0.00790308833014136
0.00797131364560963
0.00773495598394342
0.00781432736042277
0.00823664240800989
0.00847502683969568
0.00841961837125229
0.00820658807682934
0.00821813599088241
0.00874930657760852
0.00891117920534116
0.00866827369049266
0.00873452233481973
0.00895702454729915
0.00920356585009921
0.00921521497667433
0.00895489867849378
0.00878233005615207
0.00873401086331269
0.00880035383087037
0.00917675353946391
0.00942431529569158
0.00916219618029708
0.00894198417787148
0.00925547404111212
0.00995694324595058
0.00997521444566946
0.00970452644191612
0.00932149965037827
0.0091680100072464
0.00972037866045174
0.010123590501462
0.00968325614721447
0.00983979056877035
0.0100657384607058
0.0099877289333078
0.0104612385365049
0.0109129577380906
0.0110207886174368
0.0110163606073443
0.0109677663345753
0.0109949262827596
0.0114096747095946
0.0117114907100072
0.0113952739393841
0.0122712966609622
0.0132905328774274
0.0126689291142849
0.0120846992868445
0.011920107924186
0.0122662189971372
0.0132723112522123
0.014309467959589
0.0152588599894136
0.0164203579126701
0.0170620880202827
0.0161143090134074
0.0145646239322268
0.0136333717343198
0.0135232805532127
0.0138112451157189
0.0140774829926529
0.0139323934255395
0.014584671482051
0.0153908884061386
0.0146897702357328
0.0145474259520875
0.0139769889063022
0.0130980903157834
0.0134754122112799
0.0140494943161088
0.0145367441455487
0.0160100911789998
0.0169152262355095
0.0160035453474908
0.0149866463991353
0.01472766100036
0.0155381279874458
0.0162958526221085
0.0163249743958947
0.0168044531048644
0.0172328933671777
0.0169733324741428
0.016902980999185
0.0172412408567459
0.0174554430019039
0.0176025306276115
0.017691010587644
0.0186436391259126
0.0207850917522953
0.020554933535645
0.0184578892196074
0.0184113732692728
0.0184965029852055
0.0180055653450287
0.017896183440361
0.0179202420964177
0.018275098319082
0.019497342256307
0.020203312264648
0.0188549243307124
0.0175666984762282
0.0173985955658305
0.0179353860750899
0.0185182425941064
0.0186419656074178
0.0179587743305775
0.0169689241231034
0.0170520289060986
0.0177468209351758
0.0171029438072655
0.0159023471840074
0.0156929031003817
0.015985087401163
0.0161010358566201
0.0159461619144282
0.0156564449477276
0.0156207171035002
0.0158482491737353
0.0159975860944226
0.0160457498613885
0.0160829239062139
0.015841042693657
0.0157058312777623
0.0157031962020528
0.0156526486043977
0.0156013452974404
0.0155038683522026
0.0153045258967925
0.0155132485845777
0.0162051948859363
0.0163780248665064
0.0155305084575589
0.0153504306719291
0.0156331498732694
0.0153407545741616
0.0152384041457137
0.0153264474546516
0.0154179195708305
0.0169250959203153
0.0188297293082693
0.0174496679922043
0.0158113332783175
0.0154416396233562
0.0155576728431999
0.0158612965735728
0.0157901182923585
0.0161191310772447
0.0170091161772761
0.0178522986851553
0.0184018002907965
0.0168868103565296
0.0155498398587346
0.0160263168623288
0.0165132052012627
0.0162013408418495
0.0164824481812464
0.0170574240434156
0.0170858533840741
0.0172547396805127
0.0178337772505612
0.0172671951415877
0.0163490616852182
0.0162636704638568
0.0162617078241145
0.0165383766910687
0.0168401363118881
0.0177664346640963
0.0189864256180682
0.0176189009440281
0.0160389799501026
0.0160618115879124
0.0167980147084544
0.0178183288330765
0.0179855976935394
0.0174573709962823
0.0180127847865047
0.0192704786006927
0.0196762919949824
0.0196819519351713
0.0201284743177294
0.0212294583616071
0.0231891122062281
0.0260954243021408
0.0330102455139039
0.0545383996989089
0.0984236149336606
0.145123420613828
0.160414038255293
0.162354666589298
0.165205740087868
0.16768283907809
0.163312775855558
0.149015328291142
0.134592268650718
0.119778834627462
0.0987968597812781
0.0848543677963508
0.0770275161011514
0.0715143560862532
0.0663342786843395
0.0607495950765164
0.0571539749332438
0.0549483081199139
0.0530955965352623
0.0528654105195767
0.0516839419714276
0.046367503796601
0.042470863944408
0.0405621210830993
0.037894849346044
0.034397281595394
0.0318987233038689
0.0300537698421703
0.0290348436086831
0.0289937697111313
0.0271766990798304
0.0248312508115445
0.0240039712164108
0.0241596864070874
0.0242949133550218
0.0239603969723186
0.0237156652153336
0.0234522373324587
0.0228766789725035
0.022624638051606
0.0228327562752513
0.0229394997542382
0.0228791556329232
0.0222697131279915
0.0215437699988062
0.0217214284602063
0.0226252650711941
0.0229765345947713
0.0231740905024697
0.0249620592021961
0.0282320263040544
0.0320608051894466
0.0348451738444295
0.0355850175970659
0.0345462580785434
0.033615446652079
0.0336246958315914
0.0337450144780417
0.0335364844050942
0.0332260651682603
0.0321744260684876
0.0303807050027506
0.0293338940999645
0.0293747381812996
0.0295732670785452
0.0295352076284695
0.0295510986121592
0.0292729459592454
0.0287831491662866
0.0283012858645403
0.0278656817251548
0.0277109903120196
0.027334023794404
0.0262923989564132
0.0253496003929193
0.0247274336943823
0.0241274282773119
0.0236252111474087
0.0234005065152645
0.0234958140613015
0.0237199898037161
0.0239156741610888
0.0241809993628893
0.0246295388010997
0.0249960285411634
0.0254545725333663
0.0259910819324362
0.026407731256536
0.0268494495576784
0.027331738586962
0.0276286923489566
0.0278124985817018
0.0279810508200432
0.0280647669021494
0.0280386693754089
0.0279869260645711
0.0278447237410244
0.0274855720611853
0.0271839999183533
0.0270109374100971
0.0269108157758079
0.0267542789971607
0.026383432251725
0.0262218760783124
0.026308281562027
0.0262854431385302
0.0263247910023854
0.0263431659374827
0.0262975106976839
0.0263057750470953
0.0262284430176456
0.0262480501861861
0.0262416307839148
0.0262671866820012
0.0264420433811534
0.0265947706059783
0.0265748756728426
0.0264772765980041
0.026570796015587
0.0268601449020869
0.0270617940067191
0.027129099533759
0.0271912374426283
0.0272339581985534
0.0272958367059656
0.0273260722430882
0.027416312215821
0.0276616376277671
0.0276684645218507
0.0276510793115741
0.0280469720962232
0.0282917592609149
0.0284063587467902
0.0286735350191764
0.0288626597673499
0.0290587335798976
0.029336269081056
0.0297656393857765
0.0301920684606757
0.030599903732435
0.0310078010716344
0.0315274884407839
0.0321837832962266
0.0327727056535253
0.0332826261304897
0.033785786394664
0.0344401090024752
0.0351170220406842
0.0357553087338119
0.0364706830770343
0.0372901100307435
0.0380872330551368
0.0387811906646224
0.0395297505639281
0.0403678698014602
0.0411379750395086
0.0420227228170186
0.0430276553948863
0.0439440805555984
0.0449077400646464
0.0458881878758896
0.0467477861248583
0.0474490794002106
0.0482054969783694
0.0490117129091304
0.0497439687751566
0.0503360409179782
0.050827973056183
0.050899027004333
0.0505497640602999
0.0504786105577168
0.0511025360544876
0.0520556159050325
0.0529856985817768
0.0538645684595455
0.0546174202636261
0.0554287665499528
0.0563867297664544
0.0571809794146793
0.0578224918562222
0.0585967987020629
0.0594543374286489
0.060282790056457
0.0611837727751729
0.0620669033605501
0.0628614424850028
0.0637650567483944
0.0647560364991652
0.0658695879489669
0.0672084514053297
0.0685263984869981
0.0699144650670826
0.0713187820660248
0.0727205231621157
0.074247479615922
0.0758492694175475
0.0775340388527781
0.0790099386641164
0.0804015489039888
0.0819515638109491
0.083595906030511
0.0851388050342249
0.0865732071293291
0.0880709620984402
0.0895390026899099
0.0909441108259991
0.0921770131029193
0.0930749893421361
0.0939926757175436
0.094904165363117
0.0956751252562462
0.0961905995376766
0.0964387376076531
0.0965704577439645
0.0965120346596485
0.0962124057308241
0.0960219154703625
0.0961825488980976
0.0966117409614539
0.0974162346358582
0.0983000333624839
0.0990627007798521
0.0996519853234639
0.10009647900916
0.100667035914332
0.101147971619649
0.101448310610423
0.101909170412893
0.102330510269586
0.102718291763845
0.103184164405109
0.10377112873125
0.104561360741448
0.105552760929182
0.10631831596437
0.10679963777414
0.107166771606098
0.107309724696657
0.107256227556452
0.106878249353753
0.106239620350193
0.105428682306266
0.10488501582147
0.104359723507833
0.103671890915414
0.103247643478596
0.102906600429354
0.102548599666623
0.102242943169738
0.101779301678198
0.101007435190488
0.100029532271179
0.0990025117811947
0.0978245174215945
0.096572134008218
0.0949680459532844
0.0933275188873095
0.0917162561301502
0.0900690668216993
0.0883959750981904
0.0866128275683955
0.0847837860261198
0.0830769505298625
0.0813647419875842
0.0794216075189327
0.0773127427109649
0.0750557253023486
0.0728148708443062
0.0707537274126756
0.0687858013172987
0.0667323263523357
0.0647140082276448
0.0627474479894742
0.0609336050402375
0.0594184330406519
0.0578401048459322
0.0561361208992968
0.0547042426753698
0.0535364203086118
0.0524783566070801
0.0514977803699139
0.0506213393829664
0.0497248146761149
0.0488116509401144
0.0481258025831727
0.0473654910826226
0.0467149807713393
0.0462029052994614
0.0457383182307532
0.0450515897226853
0.0445307893701916
0.043993996261491
0.0434140876911103
0.0427709056826979
0.0420425733233523
0.0415232728791315
0.0411919211373482
0.0408116503993209
0.0404256629988599
0.040226251705998
0.0400633041337183
0.0398877574840908
0.0396329322064326
0.0389968749069904
0.0378582579112549
0.0367067818495552
0.0357043098824059
0.0348299969312214
0.0339355687806875
0.0331653717438864
0.0326282850270967
0.0319405858635313
0.0310966288665796
0.0308757344299465
0.0307052699290261
0.0302190744288065
0.0295174554402133
0.0285561294694767
0.0277104550810622
0.0272250209430027
0.0266479320196059
0.025993786123794
0.0254846434407183
0.0250667194614743
0.0245448139802852
0.0240998031644562
0.0234728160507424
0.0226382331511476
0.0222363618516209
0.0220589134633331
0.0216295416966358
0.0210728545161684
0.0208884661236051
0.0207117502267438
0.0207854568582801
0.0209752460408225
0.0208634613831643
0.0208537486376598
0.021117523137976
0.0208814309387967
0.0206695177126894
0.0209615418524158
0.0213707336493852
0.0216125859070275
0.0218213005520323
0.0223050645838397
0.0224056421559125
0.0221394351079708
0.0223098746107802
0.0226172751847821
0.0231004749999771
0.0235314220194202
0.0236538987425243
0.0238390810111394
0.0244190341652421
0.0254485027389249
0.027202544262804
0.0298925279625108
0.0331084885759509
0.0366565615260848
0.0403716860330458
0.0442797687846597
0.0471622501656899
0.0478962836724402
0.046786826747375
0.0454681815035889
0.0436151784107639
0.0417631161169436
0.0413028694426047
0.0413296880901939
0.0421177253230919
0.0436110521544288
0.0450819752040583
0.0466092699864133
0.0469427346020298
0.0457832646523124
0.0440002104058522
0.0419988358122576
0.0406363610589881
0.0398550529162726
0.0391242931422279
0.0379187574251418
0.0369847283634628
0.0372460460180629
0.0376001306605346
0.0370297164433208
0.0362405859199989
0.036505185648329
0.0369301218971678
0.0369321847747763
0.0375497687016491
0.0380360206159567
0.0384603609301147
0.0388384017668482
0.0400734043389476
0.0418698240025976
0.0447474814566674
0.0528218073919887
0.0744427553314661
0.100501658879689
0.10632792928926
0.100692459553098
0.103859686017723
0.121191957421728
0.156884634831393
0.197435006329134
0.211604066197237
0.186048581183572
0.140617037820654
0.103750556056876
0.0812622423540666
0.0677140200039381
0.0593869225285265
0.0539874474049341
0.0499900175114475
0.0476472412648707
0.0470857507151617
0.0470155990210192
0.0460111257269638
0.0441385609100354
0.0419983438432403
0.0390516165578733
0.0374302000436231
0.0364850377719007
0.0351728637452444
0.0330820364422161
0.0307788019548799
0.0304119931625216
0.0317330598844842
0.0305672403853819
0.029156665040659
0.0296901602020481
0.0326553234510508
0.0338649582403325
0.02939533547446
0.0290837881449048
0.0293266808068327
0.0269183994882357
0.0289570020540035
0.0322497777656377
0.0325660567950053
0.0291339330256434
0.0270560187493057
